Position(bp)	Rate(cM/Mb)	Map(cM)
866	1.6584416600968566	0.0
1012	1.1683061718662016	0.00024379091113864166
2013	0.627198868115779	0.0014120971111611668
2865	0.38417642752562214	0.0019464704640162179
2941	0.3070672091451741	0.0019756678680031537
3285	0.26605549611442725	0.0020812991046288993
3448	0.24369771370649862	0.0021246658970604793
5094	0.22600470210609303	0.0025257924878927794
5479	0.21448144498254307	0.0026128045387994138
9550	0.21093524045500622	0.0034859585820475303
10741	0.20342654015091785	0.0037371827626985037
11544	0.19135854262867438	0.003900534575965761
11752	0.18731414010586783	0.00394033691857191
11937	0.18448918797161842	0.0039749899763486885
13168	0.18467237301497924	0.0042020961538461535
13703	0.18376993467732855	0.004300895849757856
15434	0.18244816420768106	0.004619001661223111
16894	0.1783357641626309	0.004885375858767881
21893	0.17760445996170743	0.005776875830611555
27639	0.1731911532830274	0.006797390950557497
28033	0.1721461876337425	0.006865628420993354
29901	0.1722434395765288	0.007187197432143261
31309	0.17313205315913952	0.007429716240567632
32281	0.17186859443631036	0.007598173752674851
32341	0.17220618875999538	0.0076083139711679215
32468	0.17076188196869022	0.0076301841986710205
35530	0.17043904155873407	0.00815305625633517
36510	0.17114151368397346	0.008320086439914406
36985	0.16825819349025795	0.008401378674400271
43071	0.1691981360513572	0.009425398440139655
43285	0.1703208413109584	0.009461606825092917
43487	0.16825230881856068	0.009496011797499723
44829	0.1685835398130419	0.009721806228178847
45069	0.16720554116454547	0.009762266218042579
45801	0.16668850658857987	0.009884660547358936
55030	0.16762949093366378	0.01142302902916995
55171	0.16844917783534188	0.011446664770807526
57067	0.168631574501633	0.011766044346210163
57105	0.17097882644441945	0.011772452246874647
58644	0.17161344182903476	0.01203558894582723
60894	0.1704003547696812	0.012421718999887374
62107	0.17159567518864727	0.012628414658182228
64095	0.17057703570221858	0.01296954707737358
64561	0.17050636332920377	0.013049036011938282
65120	0.16930169501069936	0.013144519427863497
65426	0.16993372001351512	0.013196156492848289
66839	0.17014027480572136	0.013436272947403986
68375	0.17381892668093257	0.013697608345534407
69006	0.17790418402973301	0.013807287982880953
70596	0.1788723110710666	0.014090155648158575
71039	0.1829418290348012	0.01416939596238315
72089	0.18353604009460525	0.014361484880054063
78271	0.18446494537673164	0.015496104994931866
79172	0.18542547021060926	0.015662307917558283
79734	0.18777728347786915	0.015766516921950673
80601	0.18672116792431587	0.015929319912152264
80748	0.1861728235161618	0.01595676785110936
83258	0.18707286856628005	0.01642406171866201
84096	0.18568281901114997	0.016580828668769008
84273	0.1843733810113752	0.016613694644667186
85229	0.1851539869354657	0.016789955681946172
85557	0.18576379659871606	0.016850686169613684
85795	0.18573276832976687	0.016894897905169497
86591	0.18606078950332236	0.01704274124338327
87305	0.18631943349476293	0.017175588607951355
87328	0.1863257686676427	0.017179874084919472
94410	0.1857132841536209	0.018499433382137633
95054	0.18888996508615846	0.018619032830273677
98091	0.19183109021286177	0.019192691181439358
98553	0.1889597927694561	0.01928131712467621
98749	0.18976590832300932	0.01931835324923978
98951	0.1938455625633517	0.01935668602883208
103137	0.19150684198671022	0.020168122564477975
103850	0.1897068363554454	0.020304667051469764
104010	0.19110341817772267	0.020335019906521
104313	0.19483348350039412	0.02039292434395765
108813	0.19263362991327843	0.021269675385741642
109473	0.19436552539700414	0.02139681349251042
109917	0.19752604459961706	0.02148311166798063
111405	0.1975183016105418	0.021777030493298797
111552	0.19647727784660435	0.02180606568870368
113496	0.20133334271877465	0.022188017597702454
114867	0.20846649397454664	0.022464045810339003
115854	0.21195013515035466	0.02266980217366821
116301	0.20976120621691632	0.02276454398017795
116519	0.2147313605135712	0.022810271990088976
118670	0.21622083004842899	0.02327215916769907
119373	0.2065825261853812	0.023424162490145287
120756	0.20282819011149905	0.023709866229305092
122029	0.20347516612231115	0.023968066364455455
122470	0.20229037616848736	0.024057798935690943
122733	0.19883477869129407	0.024111001323347224
124466	0.19836482148890647	0.024455581934902573
125850	0.19495444306791304	0.02473011893231219
125986	0.19474664939745462	0.024756632728910922
127101	0.19338019484176142	0.02497377534069152
130288	0.19311245635769794	0.02559027103277397
130793	0.19004797837594326	0.025687599814168256
131794	0.19424825430791767	0.02587783767879266
131894	0.194592944025228	0.025897262642189438
132168	0.19092718774636785	0.025950581005743885
132291	0.1904276100912265	0.02597406509742088
132928	0.19269143484626647	0.02609536744002703
133692	0.1916464691969817	0.026242583680594657
138613	0.18935308030183576	0.027185676314900327
139848	0.1927212805496114	0.02741952725532153
140492	0.19108784773060034	0.02754363996508616
142027	0.19196111611667982	0.02783695984908212
143082	0.19040342380898748	0.028039478713819125
145127	0.1923920204978038	0.028428853530803024
149985	0.19647164658182223	0.029363493411420204
154639	0.19759497128054956	0.030277872508165337
154808	0.1973325543417052	0.030311266105417286
155862	0.20023654127717092	0.03051925478657507
168744	0.2018050737695686	0.033098701599279204
170120	0.2121006307016556	0.03337638523482373
170329	0.2191262248000901	0.033420714325937614
170539	0.2194932987949094	0.033466730881856054
170627	0.22026604910462896	0.03348604620452753
171157	0.2276084863160266	0.03360278730712919
171756	0.23046502984570338	0.03373912478882757
172274	0.23474617073994822	0.03385850554679581
172606	0.23500577204640158	0.03393644129406465
173200	0.23692989075346327	0.03407603477306002
174165	0.23413805045613242	0.03430467209145173
175109	0.24350906633629915	0.03452569802342608
175742	0.2460832300934791	0.03467983953711003
177925	0.259771652213087	0.03521703919360288
178301	0.26298245861020375	0.03531471325599728
178712	0.2780040826669668	0.03542279902015993
180033	0.3042404268498705	0.03579004240342381
180286	0.3247915868904156	0.03586701509178962
180905	0.348923640049555	0.03606806121184817
181714	0.3590947460299583	0.036350340466268734
181924	0.3701360513571348	0.03642575033787587
182345	0.3679039869354656	0.03658157762698503
182429	0.36714576528888393	0.0366124817265458
182801	0.375132250253407	0.03674905988850095
183619	0.3806001520441493	0.03705591814956641
184816	0.3686668825318167	0.037511496762022735
187325	0.3642646131321095	0.03843648164207681
187466	0.3579807129181214	0.03848784288771258
188830	0.34810659984232445	0.038976128730712926
188938	0.3292707512107219	0.039013724180650966
194125	0.3184144047753126	0.04072165111499043
194318	0.31836591958553906	0.040783105079400805
194754	0.3111624901452865	0.04092191265908324
194845	0.3080637459173331	0.040950228432255875
199524	0.2978863047640498	0.04239165868904156
199642	0.3021626309269063	0.042426809522468745
199908	0.3087497465930848	0.04250718453654691
203083	0.331098885009573	0.04348746531140895
204085	0.33454454330442646	0.043819226433156874
204612	0.33319332131996854	0.0439955313098322
206055	0.3361411476517625	0.04447632934452076
206469	0.32888484063520645	0.044615491581259145
208647	0.32759499943687354	0.04533180284941998
208922	0.33538988061718666	0.04542189137290238
210989	0.3329631152156774	0.04611514247099898
211790	0.34063582610654347	0.04638184615384614
214896	0.35047364568081973	0.04743986073882196
214965	0.35050712354994934	0.04746404333258248
215960	0.3523414235837369	0.047812797950219636
218657	0.34401030521455106	0.048763063013852886
220215	0.3395715733753802	0.049299031225363214
220391	0.36775104178398477	0.04935879575402639
221523	0.3875551019258926	0.049775089846829615
224913	0.3743581765964636	0.05108890198783646
225020	0.37810705034350717	0.05112895846942222
226026	0.3850514134474603	0.05150933413109584
227509	0.37510215114314677	0.05208036535645905
227611	0.38260206667417507	0.052118625717986256
228450	0.3811241975447687	0.0524396289559635
234889	0.4026923076923078	0.054893687633742534
236532	0.366280155422908	0.0555553111273792
238573	0.3842032605023088	0.05630288872620791
239496	0.3768839959454893	0.05665750844689718
241508	0.3909349307354434	0.057415799048316236
243206	0.41582117918684547	0.05807960640274806
243541	0.40297874197544775	0.05821890660547359
243730	0.37324605811465267	0.058295069602432685
244330	0.363057495213425	0.05851901700641961
245084	0.3228802511544094	0.058792762388782505
246054	0.3156226489469536	0.05910595635769794
248763	0.30545281000112623	0.05996097795359841
251182	0.32106988399594566	0.06069986797499717
251831	0.31263723392273907	0.060908242313323556
252328	0.3080258756616735	0.061063623127604445
253012	0.3075076866764275	0.06127431273228968
257314	0.3070875380110372	0.06259721077824078
261889	0.30075641964185157	0.06400213596688814
263148	0.2974858373690731	0.06438078815181889
263433	0.288710693771821	0.06446557165784433
265141	0.28239283703119716	0.06495868935127831
267340	0.2805387712580247	0.06557967144385629
269725	0.2820501745692082	0.06624875644779814
269756	0.28653536434283133	0.06625749997184369
272377	0.27213593873183917	0.06700850929158687
273076	0.273531140894245	0.06719873234598492
277934	0.2822737920937043	0.06852754682396667
278014	0.2798925273116342	0.06855012870255661
278415	0.28420624507264314	0.068662365609866
278441	0.2879407590944928	0.06866975489920035
278713	0.2790023651312084	0.06874807489582159
279317	0.2828469140668995	0.06891659212749184
281199	0.2978137177610089	0.06944891020948306
282327	0.3236044318053834	0.06978484415474714
282544	0.31925425160491055	0.06985506633629916
282659	0.28288165897060485	0.06989178054961147
284226	0.2731604065773173	0.07033505617186621
288986	0.2735028719450389	0.07163530034350717
290632	0.2690901283928371	0.07208548628787025
290987	0.26253150692645566	0.07218101328978489
291407	0.2537776495100799	0.07229127643878813
291949	0.25568436760896496	0.07242882402297555
292450	0.25205352517175367	0.07255692178173216
294074	0.2556706273228968	0.07296625647595452
294231	0.24575909449262318	0.07300639689154183
294777	0.24415370537222653	0.07314058154071405
294972	0.2376915193152382	0.07318819132222096
295609	0.2349100687014304	0.07333960094042122
296442	0.2299163757179862	0.07353528094379995
298090	0.213793360738822	0.07391418290348016
303178	0.21108562338101133	0.07500196384728008
304006	0.2066473420430228	0.07517674270751216
306545	0.20875816533393401	0.07570142045838496
313943	0.2114728009911026	0.07724581304200924
316922	0.2195281000112625	0.07787579091113862
317640	0.22775489920036035	0.07803341203964408
318419	0.2432452415812592	0.07821083314562455
318474	0.25641612231107114	0.07822421173555576
318796	0.26702852235612107	0.07830677781844801
318882	0.26943090438112405	0.078329742172542
318941	0.27085578330893106	0.07834563875436422
319198	0.2850865243833765	0.07841524856402748
320106	0.30541327852235617	0.07867410733190677
320165	0.3063719731951797	0.07869212650636333
320392	0.28841263092690606	0.0787616729924541
320697	0.2785966325036604	0.07884963903592744
320955	0.2792827458047077	0.07892151675301275
321291	0.2772909956076134	0.07901535581146525
321710	0.27687963171528324	0.07913154091113865
321843	0.2798202781844802	0.07916836566617864
322657	0.2836800596914068	0.0793961394019597
324647	0.2826306171866201	0.07996066316589703
325883	0.2897172541952923	0.08030999470661113
327186	0.2695569883995946	0.08068749631152154
328719	0.269910181326726	0.08110072733415927
329130	0.26768414235837357	0.08121166037842101
329963	0.2742944306791306	0.08143464123212067
330037	0.2683833483500396	0.08145493915418402
335651	0.2587444250478658	0.0829616430622818
335915	0.2540003941885347	0.08302995157112289
337148	0.24993890077711448	0.08334313385516384
338207	0.25305031535082784	0.08360781915193152
340379	0.2496368960468522	0.08415744422232226
343317	0.24799434057889386	0.08489087788602322
343817	0.24932985133460983	0.08501487512670347
347173	0.2453247550399819	0.08585162594323685
347373	0.25792166910688147	0.08590069064646924
349349	0.2585619439126029	0.08641034390134027
351710	0.2591379659871608	0.08702080856515376
352360	0.2592863216578444	0.08718924819799527
353678	0.25892724405901574	0.08753098778015543
354677	0.26673133235724744	0.08778965592972181
355841	0.2678132954161505	0.08810013126478207
356020	0.26888475616623486	0.08814806971505798
356683	0.27492318954837264	0.08832634029733076
357051	0.279657985133461	0.0884275120227503
357314	0.27963869805158253	0.08850106228178849
358928	0.2825807241806509	0.08895239903142241
360878	0.2954649172204076	0.0895034315801329
361200	0.29127345421781736	0.08959857126365584
362920	0.29429381124000464	0.09009956152156774
365337	0.28723195179637345	0.09081086983331453
367171	0.278367777902917	0.09133765339565268
368477	0.28190812591508074	0.09170120162743553
368525	0.2902771990088975	0.09171473344408156
368838	0.2829483049893007	0.0918055899876112
369575	0.2813051582385404	0.09201412270525962
369729	0.27557309381687123	0.0920574439126028
370025	0.27488641738934566	0.09213901351503542
371075	0.28005845252843786	0.09242764416037841
373209	0.2807070897623607	0.09302528916544654
377654	0.28830065322671483	0.09427303147877016
377791	0.2906469196981642	0.09431252866313777
380152	0.29555577767766655	0.09499874625520892
380574	0.28295061380786135	0.09512347085820473
381398	0.2859142921500169	0.09535662205766414
384898	0.2919269906521005	0.09635732244622147
385539	0.2866335454443068	0.09654444771370649
386794	0.28268084806847615	0.09690417268273455
386910	0.2824342831399932	0.0969369636783421
387922	0.28929451514810234	0.09722278711003493
388722	0.30165795697713715	0.09745422277283475
389206	0.3093779986484965	0.09760022530690393
389804	0.31747803806735003	0.09778523341592521
390342	0.31276317715959	0.09795603651875207
392982	0.287751604910463	0.09878173138866991
394313	0.2734888782520554	0.09916472874197543
395457	0.2846474828246425	0.09947759992679353
400239	0.2929724349588918	0.10083878330893119
402095	0.29210910575515253	0.10138254034801218
402593	0.3021036997409619	0.10152801081202839
404381	0.3001357134812479	0.10206817211960803
404856	0.29920534407027816	0.10221073659758981
405418	0.3006875774298906	0.1023788900213988
405598	0.30391550287194513	0.10243301390922399
406108	0.305559353530803	0.10258801069940308
407646	0.30345095168374814	0.10305796103164773
408271	0.30558255434170506	0.10324761794684086
408332	0.3072403705372227	0.10326625853136617
408694	0.3093297950219618	0.10337747927694563
409595	0.29603584300033786	0.10365618555017457
411160	0.29137262079062953	0.10411948141682624
412437	0.2876882250253407	0.10449156414010582
413054	0.27976576754138976	0.10466906774411537
418002	0.2816051075571574	0.10605334829372673
419819	0.27555884671697267	0.10656502491834666
421539	0.28323518977362316	0.10703898611893226
423899	0.288703232345985	0.10770742099335509
423967	0.28590246649397455	0.10772705293388896
424188	0.28461453992566726	0.10779023738596688
426129	0.2926691350377294	0.1083426745410519
427450	0.3033653846153847	0.10872929057326275
427533	0.32356194391260296	0.10875446978826443
432633	0.32226959680144146	0.11040463605135716
433789	0.32801126252956425	0.11077717932762697
434631	0.3240220464016219	0.11105336515936474
439026	0.3570552427075122	0.11247744163194054
441475	0.40498428877125814	0.11335186988962723
442201	0.4169735612118481	0.1136458882475504
442597	0.4471114990426851	0.11381100991102601
443334	0.4916059804031987	0.11414053105642528
445198	0.5363025960130645	0.11505688430566507
445861	0.5267080752336977	0.11541245303525174
446474	0.4941501576754138	0.1157353251492285
446768	0.48418994256109926	0.11588060496677552
447994	0.4852867158463789	0.11647422204077032
449369	0.4949441096970381	0.1171414912433833
450061	0.4775981247888278	0.11748399265119946
452584	0.4609911870706159	0.11868897223786468
454133	0.4884236682058789	0.11940304755603105
454387	0.4992682734542181	0.11952710710665615
455806	0.4788023144498254	0.12023556870143036
458514	0.5794354938619211	0.12153216550287194
460410	0.5975499774749409	0.12263077531253519
462635	0.6045855952246875	0.12396032391035022
463264	0.6247074839508955	0.12434060817659644
464875	0.6357766358824192	0.12534701193828132
466472	0.6741155253970044	0.12636234722378645
466519	0.6866829034801217	0.12639403049329878
467152	0.6646980515823852	0.12682870089537107
468840	0.6572589537110034	0.1279507108063971
471599	0.6654263149003266	0.12976408835454434
475144	0.7198058058339905	0.13212302522806624
475269	0.7170459511206216	0.13221300101362762
477528	0.582968493073544	0.13383280797387098
484206	0.6009009742088072	0.1377258709314112
484284	0.6311941941660099	0.13777274113075794
485099	0.6136920542853925	0.138287164376619
486345	0.5933872902353868	0.1390518243045388
487803	0.6073177159590045	0.13991698330329996
490704	0.6147528156323911	0.1416788119157563
491649	0.6234261459623832	0.14225975337875887
492127	0.6208569658745354	0.14255775112625296
492809	0.5966345027593197	0.14298117530127263
493027	0.6033585426286744	0.14311124163757177
493627	0.6143693265007323	0.1434732568138304
493663	0.6735334497128055	0.1434953741693884
494541	0.6476336017569544	0.1440867364004955
495966	0.6042182396666289	0.14500961431467502
496551	0.5939119551751322	0.14536308193490258
497039	0.5754543304426174	0.14565291096970379
499041	0.5552365131208467	0.14680497066111045
499221	0.5814736738371437	0.1469049129406466
506020	0.5737879828809551	0.15085835288320756
506242	0.5625098547133689	0.1509857337538011
507297	0.5518157450163308	0.15157918172091447
508594	0.537062844914968	0.15229488661448365
510922	0.5368570784998311	0.15354516924766295
512243	0.5467055974771932	0.15425435752900107
513405	0.5475458103390023	0.1548901760896498
514999	0.5220252280662239	0.1557624166009686
515720	0.5037138191237752	0.15613879659871605
519398	0.4718236850996731	0.1579914559353531
519692	0.4616960524833877	0.15813017186620115
520374	0.47034229642977793	0.1584450487104404
522470	0.4796155253970042	0.1594308860513572
522941	0.45915043923865295	0.15965678505462327
523190	0.4638484063520666	0.15977111344182904
524496	0.48148710440364906	0.16037689973533062
524643	0.477147229417727	0.160447678116905
524801	0.4836535364342832	0.16052306754702111
524887	0.49418918234035353	0.16056466156098662
529730	0.49728246424146877	0.1629580195686451
530293	0.5216499605811464	0.16323798975109813
532063	0.5371809606937716	0.16416131028268957
534402	0.5331470041671361	0.1654177764106319
534574	0.5339221759207118	0.1655094775875662
535934	0.5237718774636786	0.16623561178060592
538660	0.5504481360513571	0.16766341395427412
540391	0.5297282351616174	0.16861623935690956
541466	0.5298344126590832	0.1691856973758306
541521	0.5439375492735669	0.16921483807298118
541971	0.5695374197544768	0.16945961014753913
544333	0.6207363160265794	0.1708048569940308
545580	0.6227790573262757	0.17157891516499602
546334	0.5881938562901227	0.17204849073656941
547852	0.581447235048992	0.17294136898862486
548812	0.5101871550850321	0.17349955803018363
548896	0.5054743495889178	0.17354241381349256
548957	0.4690015767541391	0.17357324771933783
549350	0.4267834778691292	0.17375756535082784
549548	0.41998930059691425	0.17384206858880502
549845	0.4232653170402071	0.17396680546795806
550155	0.4109414348462663	0.1740980175977023
550659	0.4126311240004503	0.1743051321657845
555584	0.40728604009460523	0.17633734060705034
555944	0.40097189998873733	0.17648396345309153
556789	0.4117192251379659	0.17682278482937278
557659	0.39684257799301725	0.17718098043135488
558090	0.39252314449825415	0.17735201951233243
558429	0.40737126928708184	0.17748508480684755
558658	0.3946799470661111	0.17757837281788488
559046	0.38681416826219167	0.17773150864399148
559653	0.391131884221196	0.17796630487667528
561169	0.40897432143259377	0.17855926114990428
561867	0.42127435522018253	0.17884472522243486
561926	0.4117574332695125	0.17886958032999214
562825	0.41664404775312525	0.17923975042234483
